 DT temp [keV]  <sigma*v> [m^3/s]
      0.00000  0.00000e+00
      1.00000  6.85048e-27
      1.02337  7.88461e-27
      1.04729  9.06476e-27
      1.07177  1.04101e-26
      1.09682  1.19420e-26
      1.12245  1.36845e-26
      1.14868  1.56646e-26
      1.17553  1.79121e-26
      1.20301  2.04607e-26
      1.23112  2.33476e-26
      1.25990  2.66144e-26
      1.28934  3.03075e-26
      1.31948  3.44781e-26
      1.35031  3.91834e-26
      1.38187  4.44867e-26
      1.41417  5.04581e-26
      1.44722  5.71751e-26
      1.48105  6.47235e-26
      1.51566  7.31980e-26
      1.55108  8.27030e-26
      1.58734  9.33537e-26
      1.62444  1.05277e-25
      1.66240  1.18611e-25
      1.70125  1.33511e-25
      1.74102  1.50143e-25
      1.78171  1.68693e-25
      1.82335  1.89361e-25
      1.86596  2.12370e-25
      1.90957  2.37961e-25
      1.95420  2.66399e-25
      1.99988  2.97971e-25
      2.04662  3.32994e-25
      2.09445  3.71810e-25
      2.14340  4.14795e-25
      2.19350  4.62355e-25
      2.24476  5.14935e-25
      2.29723  5.73016e-25
      2.35092  6.37123e-25
      2.40586  7.07825e-25
      2.46209  7.85740e-25
      2.51964  8.71537e-25
      2.57852  9.65943e-25
      2.63879  1.06974e-24
      2.70046  1.18379e-24
      2.76358  1.30899e-24
      2.82817  1.44636e-24
      2.89427  1.59696e-24
      2.96191  1.76193e-24
      3.03114  1.94255e-24
      3.10198  2.14013e-24
      3.17448  2.35613e-24
      3.24867  2.59209e-24
      3.32460  2.84968e-24
      3.40230  3.13068e-24
      3.48182  3.43701e-24
      3.56319  3.77070e-24
      3.64647  4.13395e-24
      3.73170  4.52908e-24
      3.81891  4.95860e-24
      3.90817  5.42514e-24
      3.99951  5.93152e-24
      4.09299  6.48076e-24
      4.18865  7.07601e-24
      4.28654  7.72066e-24
      4.38673  8.41827e-24
      4.48925  9.17261e-24
      4.59417  9.98766e-24
      4.70155  1.08676e-23
      4.81143  1.18169e-23
      4.92388  1.28401e-23
      5.03896  1.39420e-23
      5.15673  1.51279e-23
      5.27725  1.64030e-23
      5.40059  1.77728e-23
      5.52681  1.92431e-23
      5.65599  2.08199e-23
      5.78818  2.25094e-23
      5.92346  2.43180e-23
      6.06190  2.62523e-23
      6.20358  2.83193e-23
      6.34857  3.05258e-23
      6.49694  3.28791e-23
      6.64879  3.53864e-23
      6.80418  3.80553e-23
      6.96321  4.08933e-23
      7.12595  4.39081e-23
      7.29250  4.71074e-23
      7.46294  5.04989e-23
      7.63736  5.40905e-23
      7.81586  5.78898e-23
      7.99853  6.19046e-23
      8.18547  6.61425e-23
      8.37678  7.06109e-23
      8.57256  7.53171e-23
      8.77291  8.02681e-23
      8.97795  8.54709e-23
      9.18778  9.09318e-23
      9.40252  9.66572e-23
      9.62227  1.02653e-22
      9.84716  1.08924e-22
      10.0773  1.15475e-22
      10.3128  1.22312e-22
      10.5539  1.29437e-22
      10.8005  1.36855e-22
      11.0530  1.44567e-22
      11.3113  1.52575e-22
      11.5756  1.60881e-22
      11.8462  1.69486e-22
      12.1231  1.78389e-22
      12.4064  1.87589e-22
      12.6964  1.97085e-22
      12.9931  2.06873e-22
      13.2968  2.16950e-22
      13.6075  2.27312e-22
      13.9256  2.37953e-22
      14.2510  2.48868e-22
      14.5841  2.60049e-22
      14.9250  2.71489e-22
      15.2738  2.83180e-22
      15.6308  2.95110e-22
      15.9961  3.07271e-22
      16.3699  3.19651e-22
      16.7525  3.32238e-22
      17.1441  3.45020e-22
      17.5448  3.57983e-22
      17.9548  3.71113e-22
      18.3744  3.84395e-22
      18.8039  3.97815e-22
      19.2434  4.11356e-22
      19.6931  4.25002e-22
      20.1534  4.38736e-22
      20.6244  4.52542e-22
      21.1064  4.66401e-22
      21.5997  4.80297e-22
      22.1045  4.94210e-22
      22.6212  5.08123e-22
      23.1499  5.22017e-22
      23.6909  5.35875e-22
      24.2446  5.49677e-22
      24.8113  5.63405e-22
      25.3911  5.77041e-22
      25.9846  5.90568e-22
      26.5919  6.03967e-22
      27.2134  6.17220e-22
      27.8494  6.30311e-22
      28.5003  6.43221e-22
      29.1664  6.55936e-22
      29.8481  6.68439e-22
      30.5457  6.80714e-22
      31.2596  6.92745e-22
      31.9902  7.04520e-22
      32.7379  7.16023e-22
      33.5030  7.27241e-22
      34.2860  7.38162e-22
      35.0873  7.48774e-22
      35.9074  7.59065e-22
      36.7466  7.69025e-22
      37.6055  7.78644e-22
      38.4844  7.87913e-22
      39.3838  7.96823e-22
      40.3043  8.05367e-22
      41.2463  8.13538e-22
      42.2103  8.21329e-22
      43.1968  8.28736e-22
      44.2064  8.35753e-22
      45.2396  8.42376e-22
      46.2969  8.48604e-22
      47.3789  8.54432e-22
      48.4863  8.59859e-22
      49.6195  8.64883e-22
      50.7792  8.69506e-22
      51.9660  8.73726e-22
      53.1805  8.77544e-22
      54.4234  8.80963e-22
      55.6954  8.83984e-22
      56.9971  8.86609e-22
      58.3292  8.88843e-22
      59.6925  8.90688e-22
      61.0876  8.92149e-22
      62.5153  8.93230e-22
      63.9764  8.93937e-22
      65.4717  8.94275e-22
      67.0019  8.94251e-22
      68.5678  8.93870e-22
      70.1704  8.93140e-22
      71.8104  8.92066e-22
      73.4887  8.90658e-22
      75.2063  8.88921e-22
      76.9640  8.86865e-22
      78.7628  8.84497e-22
      80.6036  8.81825e-22
      82.4875  8.78859e-22
      84.4153  8.75606e-22
      86.3883  8.72075e-22
      88.4073  8.68275e-22
      90.4736  8.64216e-22
      92.5881  8.59906e-22
      94.7521  8.55354e-22
      96.9666  8.50569e-22
      99.2328  8.45562e-22
      101.552  8.40340e-22
      103.926  8.34913e-22
      106.354  8.29290e-22
      108.840  8.23480e-22
      111.384  8.17492e-22
      113.987  8.11335e-22
      116.651  8.05019e-22
      119.378  7.98551e-22
      122.168  7.91940e-22
      125.023  7.85196e-22
      127.945  7.78326e-22
      130.935  7.71338e-22
      133.995  7.64242e-22
      137.127  7.57044e-22
      140.332  7.49753e-22
      143.612  7.42377e-22
      146.968  7.34923e-22
      150.403  7.27398e-22
      153.919  7.19810e-22
      157.516  7.12166e-22
      161.197  7.04473e-22
      164.965  6.96736e-22
      168.820  6.88964e-22
      172.766  6.81162e-22
      176.804  6.73336e-22
      180.936  6.65493e-22
      185.165  6.57637e-22
      189.492  6.49776e-22
      193.921  6.41914e-22
      198.454  6.34056e-22
      203.092  6.26208e-22
      207.838  6.18375e-22
      212.696  6.10560e-22
      217.667  6.02770e-22
      222.754  5.95008e-22
      227.961  5.87278e-22
      233.288  5.79584e-22
      238.741  5.71932e-22
      244.321  5.64323e-22
      250.031  5.56762e-22
      255.874  5.49252e-22
      261.855  5.41797e-22
      267.975  5.34399e-22
      274.238  5.27062e-22
      280.647  5.19788e-22
      287.206  5.12580e-22
      293.919  5.05440e-22
      300.788  4.98372e-22
      307.818  4.91377e-22
      315.012  4.84457e-22
      322.375  4.77615e-22
      329.909  4.70852e-22
      337.620  4.64169e-22
      345.511  4.57570e-22
      353.586  4.51055e-22
      361.850  4.44625e-22
      370.307  4.38282e-22
      378.962  4.32028e-22
      387.819  4.25862e-22
      396.883  4.19787e-22
      406.159  4.13803e-22
      415.651  4.07910e-22
      425.366  4.02110e-22
      435.307  3.96403e-22
      445.481  3.90790e-22
      455.893  3.85271e-22
      466.548  3.79845e-22
      477.452  3.74515e-22
      488.611  3.69279e-22
      500.031  3.64139e-22
      511.717  3.59092e-22
      523.677  3.54141e-22
      535.916  3.49284e-22
      548.442  3.44522e-22
      561.260  3.39853e-22
      574.377  3.35279e-22
      587.802  3.30797e-22
      601.540  3.26409e-22
      615.599  3.22112e-22
      629.986  3.17907e-22
      644.710  3.13794e-22
      659.778  3.09770e-22
      675.199  3.05836e-22
      690.979  3.01990e-22
      707.128  2.98232e-22
      723.656  2.94561e-22
      740.569  2.90975e-22
      757.877  2.87475e-22
      775.590  2.84057e-22
      793.717  2.80723e-22
      812.267  2.77469e-22
      831.251  2.74295e-22
      850.679  2.71200e-22
      870.561  2.68183e-22
      890.908  2.65242e-22
      911.730  2.62375e-22
      933.039  2.59582e-22
      954.845  2.56861e-22
      977.162  2.54210e-22
      1000.00  2.51628e-22
